# Pulseq sequence file
# Created by MATLAB mr toolbox

[VERSION]
major 1
minor 4
revision 0

[DEFINITIONS]
AdcRasterTime 1e-07 
ArmSamples 184 
BlockDurationRaster 1e-05 
Delay_shot 10 
Discard_post 20 
Discard_pre 20 
FOV 0.4305 0.4305 0.24 
FlipAngle 25 
GradAmpMax 2.3 
GradientRasterTime 1e-05 
MatrixSize 246 246 120 
Name SOSOi 
Num_ga_repeated 120 
Num_total_interleaves 28193 
NumofGAsteps 233 
NumofInterleaves 172 
RFLength 0.0001 
RFPhase 180 
RFRampups 7 
RFRampups_beta 3 
RadiofrequencyRasterTime 1e-06 
Readout_time 0.00184 
RealDwellTime 2.5e-06 
Resolution 0.00175 0.00175 0.002 
SlewRateMax 17500 
TE1 0.00052 
TE2 0.00236 
TR 0.00296 
TotalDuration 17.91518 
Total_acq_time 1.55786667 

# Format of blocks:
# NUM DUR RF  GX  GY  GZ  ADC  EXT
[BLOCKS]
    1  22   1   0   0   0  0  0
    2   6   0   0   0   0  1  0
    3  39   0   0   0   1  0  0
    4 196   0   2   3   0  0  0
    5  39   0   0   0   4  0  0
    6  22   2   0   0   0  0  0
    7   6   0   0   0   0  1  0
    8  39   0   0   0   1  0  0
    9 196   0   2   3   0  0  0
   10  39   0   0   0   4  0  0
   11  22   3   0   0   0  0  0
   12   6   0   0   0   0  1  0
   13  39   0   0   0   1  0  0
   14 196   0   2   3   0  0  0
   15  39   0   0   0   4  0  0
   16  22   4   0   0   0  0  0
   17   6   0   0   0   0  1  0
   18  39   0   0   0   1  0  0
   19 196   0   2   3   0  0  0
   20  39   0   0   0   4  0  0
   21  22   5   0   0   0  0  0
   22   6   0   0   0   0  1  0
   23  39   0   0   0   1  0  0
   24 196   0   2   3   0  0  0
   25  39   0   0   0   4  0  0
   26  22   6   0   0   0  0  0
   27   6   0   0   0   0  1  0
   28  39   0   0   0   1  0  0
   29 196   0   2   3   0  0  0
   30  39   0   0   0   4  0  0
   31  22   7   0   0   0  0  0
   32   6   0   0   0   0  1  0
   33  39   0   0   0   1  0  0
   34 196   0   2   3   0  0  0
   35  39   0   0   0   4  0  0
   36  22   8   0   0   0  0  0
   37   6   0   0   0   0  1  0
   38  22   8   0   0   0  0  0
   39   6   0   0   0   0  1  0
   40  22   8   0   0   0  0  0
   41   6   0   0   0   0  1  0
   42  22   8   0   0   0  0  0
   43   6   0   0   0   0  1  0
   44  22   8   0   0   0  0  0
   45   6   0   0   0   0  1  0
   46  22   8   0   0   0  0  0
   47   6   0   0   0   0  1  0
   48  22   8   0   0   0  0  0
   49   6   0   0   0   0  1  0
   50  22   8   0   0   0  0  0
   51   6   0   0   0   0  1  0
   52  22   8   0   0   0  0  0
   53   6   0   0   0   0  1  0
   54  22   8   0   0   0  0  0
   55   6   0   0   0   0  1  0
   56  22   8   0   0   0  0  0
   57   6   0   0   0   0  1  0
   58  22   8   0   0   0  0  0
   59   6   0   0   0   0  1  0
   60  22   8   0   0   0  0  0
   61   6   0   0   0   0  1  0
   62  22   8   0   0   0  0  0
   63   6   0   0   0   0  1  0
   64  22   8   0   0   0  0  0
   65   6   0   0   0   0  1  0
   66  22   8   0   0   0  0  0
   67   6   0   0   0   0  1  0
   68  22   8   0   0   0  0  0
   69   6   0   0   0   0  1  0
   70  22   8   0   0   0  0  0
   71   6   0   0   0   0  1  0
   72  22   8   0   0   0  0  0
   73   6   0   0   0   0  1  0
   74  22   8   0   0   0  0  0
   75   6   0   0   0   0  1  0
   76  22   8   0   0   0  0  0
   77   6   0   0   0   0  1  0
   78  22   8   0   0   0  0  0
   79   6   0   0   0   0  1  0
   80  22   8   0   0   0  0  0
   81   6   0   0   0   0  1  0
   82  22   8   0   0   0  0  0
   83   6   0   0   0   0  1  0
   84  22   8   0   0   0  0  0
   85   6   0   0   0   0  1  0
   86  22   8   0   0   0  0  0
   87   6   0   0   0   0  1  0
   88  22   8   0   0   0  0  0
   89   6   0   0   0   0  1  0
   90  22   8   0   0   0  0  0
   91   6   0   0   0   0  1  0
   92  22   8   0   0   0  0  0
   93   6   0   0   0   0  1  0
   94  22   8   0   0   0  0  0
   95   6   0   0   0   0  1  0
   96  22   8   0   0   0  0  0
   97   6   0   0   0   0  1  0
   98  22   8   0   0   0  0  0
   99   6   0   0   0   0  1  0
  100  22   8   0   0   0  0  0
  101   6   0   0   0   0  1  0
  102  22   8   0   0   0  0  0
  103   6   0   0   0   0  1  0
  104  22   8   0   0   0  0  0
  105   6   0   0   0   0  1  0
  106  22   8   0   0   0  0  0
  107   6   0   0   0   0  1  0
  108  22   8   0   0   0  0  0
  109   6   0   0   0   0  1  0
  110  22   8   0   0   0  0  0
  111   6   0   0   0   0  1  0
  112  22   8   0   0   0  0  0
  113   6   0   0   0   0  1  0
  114  22   8   0   0   0  0  0
  115   6   0   0   0   0  1  0
  116  22   8   0   0   0  0  0
  117   6   0   0   0   0  1  0
  118  22   8   0   0   0  0  0
  119   6   0   0   0   0  1  0
  120  22   8   0   0   0  0  0
  121   6   0   0   0   0  1  0
  122  22   8   0   0   0  0  0
  123   6   0   0   0   0  1  0
  124  22   8   0   0   0  0  0
  125   6   0   0   0   0  1  0
  126  22   8   0   0   0  0  0
  127   6   0   0   0   0  1  0
  128  22   8   0   0   0  0  0
  129   6   0   0   0   0  1  0
  130  22   8   0   0   0  0  0
  131   6   0   0   0   0  1  0
  132  22   8   0   0   0  0  0
  133   6   0   0   0   0  1  0
  134  22   8   0   0   0  0  0
  135   6   0   0   0   0  1  0
  136  22   8   0   0   0  0  0
  137   6   0   0   0   0  1  0
  138  22   8   0   0   0  0  0
  139   6   0   0   0   0  1  0
  140  22   8   0   0   0  0  0
  141   6   0   0   0   0  1  0
  142  22   8   0   0   0  0  0
  143   6   0   0   0   0  1  0
  144  22   8   0   0   0  0  0
  145   6   0   0   0   0  1  0
  146  22   8   0   0   0  0  0
  147   6   0   0   0   0  1  0
  148  22   8   0   0   0  0  0
  149   6   0   0   0   0  1  0
  150  22   8   0   0   0  0  0
  151   6   0   0   0   0  1  0
  152  22   8   0   0   0  0  0
  153   6   0   0   0   0  1  0
  154  22   8   0   0   0  0  0
  155   6   0   0   0   0  1  0
  156  22   8   0   0   0  0  0
  157   6   0   0   0   0  1  0
  158  22   8   0   0   0  0  0
  159   6   0   0   0   0  1  0
  160  22   8   0   0   0  0  0
  161   6   0   0   0   0  1  0
  162  22   8   0   0   0  0  0
  163   6   0   0   0   0  1  0
  164  22   8   0   0   0  0  0
  165   6   0   0   0   0  1  0
  166  22   8   0   0   0  0  0
  167   6   0   0   0   0  1  0
  168  22   8   0   0   0  0  0
  169   6   0   0   0   0  1  0
  170  22   8   0   0   0  0  0
  171   6   0   0   0   0  1  0
  172  22   8   0   0   0  0  0
  173   6   0   0   0   0  1  0
  174  22   8   0   0   0  0  0
  175   6   0   0   0   0  1  0
  176  22   8   0   0   0  0  0
  177   6   0   0   0   0  1  0
  178  22   8   0   0   0  0  0
  179   6   0   0   0   0  1  0
  180  22   8   0   0   0  0  0
  181   6   0   0   0   0  1  0
  182  22   8   0   0   0  0  0
  183   6   0   0   0   0  1  0
  184  22   8   0   0   0  0  0
  185   6   0   0   0   0  1  0
  186  22   8   0   0   0  0  0
  187   6   0   0   0   0  1  0
  188  22   8   0   0   0  0  0
  189   6   0   0   0   0  1  0
  190  22   8   0   0   0  0  0
  191   6   0   0   0   0  1  0
  192  22   8   0   0   0  0  0
  193   6   0   0   0   0  1  0
  194  22   8   0   0   0  0  0
  195   6   0   0   0   0  1  0
  196  22   8   0   0   0  0  0
  197   6   0   0   0   0  1  0
  198  22   8   0   0   0  0  0
  199   6   0   0   0   0  1  0
  200  22   8   0   0   0  0  0
  201   6   0   0   0   0  1  0
  202  22   8   0   0   0  0  0
  203   6   0   0   0   0  1  0
  204  22   8   0   0   0  0  0
  205   6   0   0   0   0  1  0
  206  22   8   0   0   0  0  0
  207   6   0   0   0   0  1  0
  208  22   8   0   0   0  0  0
  209   6   0   0   0   0  1  0
  210  22   8   0   0   0  0  0
  211   6   0   0   0   0  1  0
  212  22   8   0   0   0  0  0
  213   6   0   0   0   0  1  0
  214  22   8   0   0   0  0  0
  215   6   0   0   0   0  1  0
  216  22   8   0   0   0  0  0
  217   6   0   0   0   0  1  0
  218  22   8   0   0   0  0  0
  219   6   0   0   0   0  1  0
  220  22   8   0   0   0  0  0
  221   6   0   0   0   0  1  0
  222  22   8   0   0   0  0  0
  223   6   0   0   0   0  1  0
  224  22   8   0   0   0  0  0
  225   6   0   0   0   0  1  0
  226  22   8   0   0   0  0  0
  227   6   0   0   0   0  1  0
  228  22   8   0   0   0  0  0
  229   6   0   0   0   0  1  0
  230  22   8   0   0   0  0  0
  231   6   0   0   0   0  1  0
  232  22   8   0   0   0  0  0
  233   6   0   0   0   0  1  0
  234  22   8   0   0   0  0  0
  235   6   0   0   0   0  1  0
  236  22   8   0   0   0  0  0
  237   6   0   0   0   0  1  0
  238  22   8   0   0   0  0  0
  239   6   0   0   0   0  1  0
  240  22   8   0   0   0  0  0
  241   6   0   0   0   0  1  0
  242  22   8   0   0   0  0  0
  243   6   0   0   0   0  1  0
  244  22   8   0   0   0  0  0
  245   6   0   0   0   0  1  0
  246  22   8   0   0   0  0  0
  247   6   0   0   0   0  1  0
  248  22   8   0   0   0  0  0
  249   6   0   0   0   0  1  0
  250  22   8   0   0   0  0  0
  251   6   0   0   0   0  1  0
  252  22   8   0   0   0  0  0
  253   6   0   0   0   0  1  0
  254  22   8   0   0   0  0  0
  255   6   0   0   0   0  1  0
  256  22   8   0   0   0  0  0
  257   6   0   0   0   0  1  0
  258  22   8   0   0   0  0  0
  259   6   0   0   0   0  1  0
  260  22   8   0   0   0  0  0
  261   6   0   0   0   0  1  0
  262  22   8   0   0   0  0  0
  263   6   0   0   0   0  1  0
  264  22   8   0   0   0  0  0
  265   6   0   0   0   0  1  0
  266  22   8   0   0   0  0  0
  267   6   0   0   0   0  1  0
  268  22   8   0   0   0  0  0
  269   6   0   0   0   0  1  0
  270  22   8   0   0   0  0  0
  271   6   0   0   0   0  1  0
  272  22   8   0   0   0  0  0
  273   6   0   0   0   0  1  0
  274  22   8   0   0   0  0  0
  275   6   0   0   0   0  1  0
  276  22   8   0   0   0  0  0
  277   6   0   0   0   0  1  0
  278  22   8   0   0   0  0  0
  279   6   0   0   0   0  1  0
  280  22   8   0   0   0  0  0
  281   6   0   0   0   0  1  0
  282  22   8   0   0   0  0  0
  283   6   0   0   0   0  1  0
  284  22   8   0   0   0  0  0
  285   6   0   0   0   0  1  0
  286  22   8   0   0   0  0  0
  287   6   0   0   0   0  1  0
  288  22   8   0   0   0  0  0
[RF]
1      33.4122 1 2 3 100 0 3.14159
2      123.603 1 2 3 100 0 0
3      265.683 1 2 3 100 0 3.14159
4      428.761 1 2 3 100 0 0
5      570.842 1 2 3 100 0 3.14159
6      661.032 1 2 3 100 0 0
7      694.444 1 2 3 100 0 3.14159
8      694.444 1 2 3 100 0 0

# Format of arbitrary gradients:
#   time_shape_id of 0 means default timing (stepping with grad_raster starting at 1/2 of grad_raster)
# id amplitude amp_shape_id time_shape_id delay
# ..      Hz/m       ..         ..          us
[GRADIENTS]
2       946319 4 0 0
3       979319 5 0 0

# Format of trapezoid gradients:
# id amplitude rise flat fall delay
# ..      Hz/m   us   us   us    us
[TRAP]
 1       910494 120  150 120   0
 4      -910494 120  150 120   0

# Format of ADC events:
# id num dwell delay freq phase
# ..  ..    ns    us   Hz   rad
[ADC]
1 10 2500 25 0 0

# Sequence Shapes
[SHAPES]

shape_id 1
num_samples 2
1
1

shape_id 2
num_samples 2
0
0

shape_id 3
num_samples 2
0
100

shape_id 4
num_samples 184
0
0.0716926873
0.149753563
0.22571871
0.295972049
0.354464041
0.393648327
0.407183076
0.393385996
0.356894785
0.305954589
0.246596916
0.181356335
0.111487156
0.0379938775
-0.0381589857
-0.116019517
-0.194654572
-0.273161421
-0.35067906
-0.426397847
-0.499567134
-0.569500901
-0.635581492
-0.697261643
-0.754065017
-0.80558547
-0.851485296
-0.89149265
-0.925398386
-0.953052455
-0.974360047
-0.989277575
-0.997808637
-1
-0.988915882
-0.964279331
-0.935512487
-0.903090375
-0.867445983
-0.8289747
-0.788038186
-0.744967742
-0.700067258
-0.653615799
-0.60586989
-0.55706552
-0.507419934
-0.457133219
-0.406389719
-0.355359304
-0.304198511
-0.253051566
-0.202051314
-0.151320057
-0.100970317
-0.0511055292
-0.00182067581
0.0467971328
0.0946681279
0.141719393
0.187884414
0.233102664
0.27731922
0.320484406
0.362553466
0.403486254
0.443246951
0.4818038
0.519128856
0.555197755
0.589989498
0.623486247
0.655673133
0.68653808
0.716071636
0.744266811
0.771118935
0.796625511
0.820786086
0.843602126
0.865076895
0.885215347
0.904024019
0.921510928
0.937685482
0.952558385
0.965651974
0.975995826
0.983769406
0.988986823
0.991657105
0.991784237
0.989368367
0.984405986
0.976888574
0.966802529
0.953974534
0.93923116
0.923187273
0.905832045
0.887155934
0.867150779
0.845809891
0.823128154
0.799102129
0.773730165
0.747012519
0.718951475
0.689551483
0.658819291
0.6267641
0.593397716
0.55873472
0.522792645
0.485592166
0.447157299
0.407515622
0.366698501
0.324741335
0.281683826
0.237570255
0.192449792
0.14637682
0.0994112885
0.0516190942
0.00307249412
-0.0461494496
-0.0959603841
-0.146266139
-0.196964153
-0.247942842
-0.299080915
-0.350246619
-0.401296905
-0.452076512
-0.502416953
-0.552135385
-0.601033358
-0.64889541
-0.695487503
-0.740555254
-0.783821948
-0.824986289
-0.863719845
-0.899664134
-0.932427305
-0.96158032
-0.986652578
-0.999873445
-0.998311936
-0.990417626
-0.97613965
-0.955469913
-0.928447102
-0.895160723
-0.855755123
-0.810433373
-0.759460895
-0.703168682
-0.641955941
-0.576291939
-0.506716846
-0.433841345
-0.358344757
-0.280971489
-0.202525594
-0.123863341
-0.0458837743
0.0304824659
0.104284881
0.174560436
0.240312605
0.300336027
0.352317374
0.390632161
0.407005805
0.39623073
0.35937699
0.30246943
0.233082193
0.157485414
0.0795360855
0

shape_id 5
num_samples 184
-0
0.0044834133
0.0141852565
0.0338715216
0.0678784296
0.118456598
0.184092849
0.258689659
0.33326792
0.400446929
0.458332661
0.508232367
0.550739304
0.585713965
0.612884367
0.632034064
0.64304492
0.645903588
0.640697647
0.627607938
0.60689912
0.578909358
0.544039656
0.502743233
0.455515235
0.402882999
0.34539704
0.283622848
0.218133566
0.149503536
0.0783027179
0.00509191036
-0.0695812596
-0.145185667
-0.221209403
-0.294943039
-0.363195641
-0.427703048
-0.488447748
-0.545435352
-0.598690206
-0.648251848
-0.694172143
-0.736512939
-0.775344144
-0.810742139
-0.84278846
-0.871568704
-0.897171607
-0.91968828
-0.939211552
-0.955835427
-0.969654619
-0.980764156
-0.98925905
-0.995234007
-0.998783187
-1
-0.998976928
-0.995805378
-0.990575555
-0.983376355
-0.974295278
-0.963418349
-0.950830061
-0.936613318
-0.920849398
-0.90361792
-0.884996816
-0.865062311
-0.843888914
-0.821549405
-0.798114835
-0.773654521
-0.748236052
-0.721925296
-0.694786406
-0.666881832
-0.638272334
-0.609016999
-0.579173252
-0.54879688
-0.517942044
-0.486661307
-0.455005645
-0.423024479
-0.390765688
-0.336949798
-0.261486574
-0.185735733
-0.109780456
-0.0337017588
0.0260901781
0.102176817
0.178148054
0.253923039
0.329418849
0.387526338
0.419810316
0.451821374
0.483511784
0.514832283
0.545732047
0.576158677
0.60605817
0.635374903
0.664051616
0.692029388
0.719247629
0.745644058
0.771154691
0.795713833
0.819254069
0.841706252
0.862999507
0.883061225
0.901817072
0.919190991
0.935105222
0.949480313
0.962235151
0.973286992
0.982551501
0.989942802
0.995373541
0.998754957
0.999996971
0.999008291
0.995696537
0.989968384
0.981729739
0.970885938
0.95734199
0.941002853
0.921773767
0.899560635
0.874270487
0.845812015
0.814096213
0.779037129
0.740552777
0.698566204
0.653006789
0.603811797
0.550928268
0.49431531
0.433946912
0.369815409
0.301935771
0.22881576
0.152777439
0.0771083998
0.00231850308
-0.0710629356
-0.142489801
-0.211402441
-0.277231612
-0.339403171
-0.397343582
-0.450486272
-0.498278874
-0.540191341
-0.575724882
-0.604421627
-0.625874878
-0.639739703
-0.645743619
-0.64369696
-0.633502436
-0.615163036
-0.588786448
-0.554580212
-0.512815184
-0.463662297
-0.40663798
-0.340398169
-0.266300517
-0.191285993
-0.124407858
-0.0721807087
-0.0365688721
-0.0156237119
-0.00514802194
-0


[SIGNATURE]
# This is the hash of the Pulseq file, calculated right before the [SIGNATURE] section was added
# It can be reproduced/verified with md5sum if the file trimmed to the position right above [SIGNATURE]
# The new line character preceding [SIGNATURE] BELONGS to the signature (and needs to be sripped away for recalculating/verification)
Type md5
Hash 645306a5ccaaaf0ef86808deea4a862b
